# Cr Density=7.19, Angle=90.deg
# Photon Energy (eV), Atten Length (microns)
   30.0000  1.684573E-02
   30.4173  1.740789E-02
   30.8405  1.798880E-02
   31.2695  1.858907E-02
   31.7045  1.920938E-02
   32.1456  1.985041E-02
   32.5928  2.045783E-02
   33.0462  2.099374E-02
   33.5059  2.153493E-02
   33.9720  2.209006E-02
   34.4446  2.256962E-02
   34.9238  2.298160E-02
   35.4096  2.338613E-02
   35.9022  2.379778E-02
   36.4017  2.421663E-02
   36.9081  2.464286E-02
   37.4215  2.507666E-02
   37.9421  2.551798E-02
   38.4699  2.598199E-02
   39.0051  2.663563E-02
   39.5477  2.733584E-02
   40.0979  2.805438E-02
   40.6557  2.879180E-02
   41.2213  2.950024E-02
   41.7947  2.839855E-02
   42.3761  2.332611E-02
   42.9656  1.888418E-02
   43.5633  1.634474E-02
   44.1694  1.352062E-02
   44.7838  1.073740E-02
   45.4068  9.003076E-03
   46.0385  8.206028E-03
   46.6790  7.879729E-03
   47.3283  7.748544E-03
   47.9867  7.689080E-03
   48.6543  7.632975E-03
   49.3312  7.617508E-03
   50.0174  7.791280E-03
   50.7132  7.953989E-03
   51.4187  8.020488E-03
   52.1340  7.989714E-03
   52.8593  7.908517E-03
   53.5946  7.812025E-03
   54.3402  7.750522E-03
   55.0962  7.783689E-03
   55.8626  7.890866E-03
   56.6397  8.081530E-03
   57.4277  8.276802E-03
   58.2266  8.476813E-03
   59.0366  8.695995E-03
   59.8579  8.933617E-03
   60.6906  9.181840E-03
   61.5349  9.436949E-03
   62.3909  9.699197E-03
   63.2589  9.968689E-03
   64.1389  1.024569E-02
   65.0311  1.053037E-02
   65.9358  1.085136E-02
   66.8531  1.120571E-02
   67.7831  1.157905E-02
   68.7260  1.196480E-02
   69.6821  1.237079E-02
   70.6515  1.287090E-02
   71.6343  1.345157E-02
   72.6309  1.416459E-02
   73.6413  1.496602E-02
   74.6657  1.582579E-02
   75.7044  1.673494E-02
   76.7576  1.767969E-02
   77.8254  1.861269E-02
   78.9080  1.948752E-02
   80.0058  2.040347E-02
   81.1188  2.122636E-02
   82.2472  2.195633E-02
   83.3914  2.254085E-02
   84.5515  2.298662E-02
   85.7277  2.334213E-02
   86.9203  2.361948E-02
   88.1295  2.381098E-02
   89.3555  2.400403E-02
   90.5985  2.419862E-02
   91.8589  2.459305E-02
   93.1368  2.517521E-02
   94.4325  2.605310E-02
   95.7461  2.724140E-02
   97.0781  2.850567E-02
   98.4286  2.985951E-02
   99.7979  3.127765E-02
   101.186  3.235397E-02
   102.594  3.317351E-02
   104.021  3.360837E-02
   105.468  3.383671E-02
   106.935  3.404531E-02
   108.423  3.421227E-02
   109.931  3.445463E-02
   111.461  3.496383E-02
   113.011  3.527156E-02
   114.583  3.558206E-02
   116.177  3.589531E-02
   117.793  3.621122E-02
   119.432  3.659101E-02
   121.094  3.723319E-02
   122.778  3.795188E-02
   124.486  3.868440E-02
   126.218  3.941727E-02
   127.974  4.008050E-02
   129.754  4.056180E-02
   131.559  4.104888E-02
   133.389  4.154181E-02
   135.245  4.260010E-02
   137.126  4.395211E-02
   139.034  4.547988E-02
   140.968  4.703895E-02
   142.929  4.837476E-02
   144.918  4.925273E-02
   146.934  4.981630E-02
   148.978  4.997263E-02
   151.050  5.012476E-02
   153.152  5.027722E-02
   155.282  5.043029E-02
   157.442  5.058377E-02
   159.632  5.084711E-02
   161.853  5.143172E-02
   164.105  5.231719E-02
   166.388  5.324740E-02
   168.702  5.431402E-02
   171.049  5.541964E-02
   173.429  5.637611E-02
   175.841  5.718701E-02
   178.288  5.796816E-02
   180.768  5.893013E-02
   183.283  6.061306E-02
   185.832  6.286506E-02
   188.418  6.537767E-02
   191.039  6.792111E-02
   193.696  7.028742E-02
   196.391  7.258084E-02
   199.123  7.459369E-02
   201.893  7.592332E-02
   204.702  7.711132E-02
   207.549  7.831769E-02
   210.437  7.954306E-02
   213.364  8.076254E-02
   216.332  8.190808E-02
   219.342  8.302233E-02
   222.393  8.433439E-02
   225.487  8.603030E-02
   228.624  8.790839E-02
   231.804  8.982780E-02
   235.029  9.178881E-02
   238.298  9.372004E-02
   241.614  9.550615E-02
   244.975  9.724221E-02
   248.383  9.933926E-02
   251.838  0.102121
   255.341  0.105034
   258.894  0.108734
   262.495  0.112691
   266.147  0.116793
   269.849  0.120950
   273.603  0.124748
   277.409  0.127724
   281.269  0.129306
   285.181  0.130990
   289.149  0.131254
   293.171  0.131942
   297.250  0.133649
   301.385  0.136215
   305.577  0.139899
   309.828  0.144717
   314.139  0.149855
   318.509  0.154419
   322.940  0.158253
   327.432  0.162470
   331.987  0.167359
   336.606  0.172588
   341.288  0.178391
   346.036  0.184497
   350.850  0.190721
   355.731  0.196585
   360.679  0.202169
   365.697  0.208024
   370.784  0.213637
   375.942  0.217992
   381.172  0.222983
   386.475  0.228902
   391.851  0.234977
   397.303  0.241215
   402.830  0.246384
   408.433  0.255244
   414.115  0.263361
   419.876  0.271674
   425.717  0.280096
   431.640  0.288755
   437.644  0.297683
   443.733  0.306886
   449.905  0.316328
   456.164  0.326039
   462.510  0.335321
   468.944  0.344689
   475.468  0.354867
   482.082  0.365140
   488.789  0.376650
   495.589  0.385439
   502.483  0.399516
   509.473  0.412315
   516.561  0.426241
   523.747  0.439790
   531.033  0.451756
   538.420  0.463922
   545.910  0.481936
   553.505  0.501827
   561.205  0.515301
   569.012  0.497421
   576.928  2.576244E-02
   584.953  2.243820E-02
   593.091  5.379991E-02
   601.342  6.708682E-02
   609.707  7.353380E-02
   618.189  7.680299E-02
   626.789  7.961815E-02
   635.508  7.568015E-02
   644.349  7.829794E-02
   653.313  8.429281E-02
   662.402  8.242974E-02
   671.616  8.838497E-02
   680.959  9.112867E-02
   690.433  8.462727E-02
   700.037  8.300128E-02
   709.776  8.513700E-02
   719.650  8.951435E-02
   729.661  9.369230E-02
   739.812  9.455734E-02
   750.104  9.327292E-02
   760.539  9.481636E-02
   771.119  9.917089E-02
   781.846  0.104482
   792.723  0.110834
   803.751  0.113639
   814.932  0.117983
   826.269  0.118634
   837.763  0.119493
   849.418  0.123530
   861.234  0.128014
   873.215  0.132660
   885.363  0.137475
   897.679  0.142464
   910.167  0.147636
   922.829  0.152982
   935.667  0.158362
   948.683  0.163920
   961.881  0.169673
   975.262  0.175629
   988.829  0.181793
   1002.59  0.188174
   1016.53  0.194779
   1030.67  0.201616
   1045.01  0.208691
   1059.55  0.216015
   1074.29  0.223597
   1089.23  0.231446
   1104.39  0.239570
   1119.75  0.247978
   1135.33  0.256680
   1151.12  0.265691
   1167.14  0.275016
   1183.37  0.284668
   1199.83  0.294660
   1216.53  0.305002
   1233.45  0.315707
   1250.61  0.326786
   1268.01  0.338257
   1285.65  0.350130
   1303.53  0.362420
   1321.66  0.375139
   1340.05  0.388307
   1358.69  0.401935
   1377.59  0.416043
   1396.76  0.430646
   1416.19  0.445760
   1435.89  0.461405
   1455.87  0.477601
   1476.12  0.494361
   1496.65  0.512079
   1517.47  0.531045
   1538.58  0.550898
   1559.99  0.571494
   1581.69  0.592860
   1603.69  0.615021
   1626.00  0.638013
   1648.62  0.661866
   1671.56  0.686610
   1694.81  0.712277
   1718.39  0.738909
   1742.29  0.766536
   1766.53  0.795191
   1791.11  0.824919
   1816.02  0.855754
   1841.29  0.887750
   1866.90  0.920938
   1892.87  0.955363
   1919.20  0.991081
   1945.90  1.02813
   1972.97  1.06657
   2000.42  1.10644
   2028.25  1.14780
   2056.46  1.19071
   2085.07  1.23523
   2114.08  1.28253
   2143.49  1.33191
   2173.31  1.38321
   2203.54  1.43649
   2234.20  1.49183
   2265.28  1.54929
   2296.79  1.60897
   2328.74  1.67095
   2361.14  1.73531
   2393.98  1.80216
   2427.29  1.87158
   2461.05  1.94367
   2495.29  2.01854
   2530.00  2.09630
   2565.20  2.17704
   2600.89  2.26090
   2637.07  2.34799
   2673.75  2.43842
   2710.95  2.53234
   2748.66  2.62989
   2786.90  2.73118
   2825.67  2.83639
   2864.98  2.94564
   2904.83  3.05911
   2945.24  3.17692
   2986.22  3.29928
   3027.76  3.42637
   3069.88  3.55835
   3112.59  3.69540
   3155.89  3.83774
   3199.79  3.98554
   3244.30  4.13904
   3289.44  4.29847
   3335.20  4.46403
   3381.59  4.63596
   3428.64  4.81452
   3476.33  4.99995
   3524.69  5.19250
   3573.73  5.39249
   3623.44  5.60017
   3673.85  5.81587
   3724.96  6.03985
   3776.78  6.27243
   3829.32  6.51399
   3882.59  6.76487
   3936.60  7.02539
   3991.36  7.29591
   4046.89  7.57686
   4103.19  7.86866
   4160.27  8.17167
   4218.14  8.48631
   4276.82  8.81311
   4336.32  9.15249
   4396.64  9.50487
   4457.81  9.87085
   4519.82  10.2509
   4582.70  10.6456
   4646.45  11.0555
   4711.09  11.4811
   4776.63  11.9231
   4843.08  12.3821
   4910.45  12.8588
   4978.76  13.3538
   5048.02  13.8678
   5118.25  14.4017
   5189.45  14.9560
   5261.64  15.5317
   5334.84  16.1295
   5409.05  16.7502
   5484.30  17.3949
   5560.60  18.0643
   5637.95  18.7595
   5716.38  19.4813
   5795.91  20.2309
   5876.54  21.0093
   5958.29  21.8176
   6041.17  2.73553
   6125.21  2.83235
   6210.42  2.93261
   6296.82  3.03642
   6384.42  3.14390
   6473.23  3.25517
   6563.29  3.37038
   6654.59  3.48969
   6747.17  3.61319
   6841.03  3.74108
   6936.19  3.87349
   7032.69  4.01058
   7130.52  4.15253
   7229.72  4.29949
   7330.29  4.45166
   7432.27  4.60921
   7535.66  4.77438
   7640.49  4.95042
   7746.78  5.13650
   7854.55  5.32959
   7963.82  5.52993
   8074.61  5.73777
   8186.93  5.95344
   8300.83  6.17719
   8416.30  6.40936
   8533.39  6.65027
   8652.10  6.90022
   8772.46  7.15954
   8894.49  7.42858
   9018.23  7.70780
   9143.69  7.99747
   9270.89  8.29799
   9399.86  8.60979
   9530.62  8.93330
   9663.21  9.26900
   9797.64  9.61730
   9933.93  9.97864
   10072.1  10.3541
   10212.2  10.7601
   10354.3  11.1829
   10498.4  11.6223
   10644.4  12.0791
   10792.5  12.5539
   10942.6  13.0472
   11094.8  13.5598
   11249.2  14.0926
   11405.7  14.6462
   11564.4  15.2218
   11725.2  15.8197
   11888.3  16.4412
   12053.7  17.0872
   12221.4  17.7582
   12391.4  18.4555
   12563.8  19.1804
   12738.6  19.9335
   12915.8  20.7165
   13095.5  21.5300
   13277.7  22.3752
   13462.4  23.2536
   13649.6  24.1662
   13839.5  25.1148
   14032.1  26.1006
   14227.3  27.1248
   14425.2  28.1892
   14625.9  29.3065
   14829.3  30.4800
   15035.6  31.7048
   15244.8  32.9786
   15456.9  34.3036
   15671.9  35.6818
   15889.9  37.1153
   16111.0  38.6056
   16335.1  40.1558
   16562.3  41.7680
   16792.7  43.4447
   17026.3  45.1883
   17263.2  47.0017
   17503.4  48.8876
   17746.9  50.8486
   17993.7  52.8878
   18244.1  55.0080
   18497.9  57.2130
   18755.2  59.5059
   19016.1  61.8901
   19280.6  64.3694
   19548.9  66.9466
   19820.8  69.6271
   20096.5  72.4140
   20376.1  75.3116
   20659.6  78.3246
   20947.0  81.4571
   21238.4  84.7139
   21533.8  88.0997
   21833.4  91.6195
   22137.1  95.2789
   22445.1  99.0832
   22757.3  103.037
   23073.9  107.147
   23394.9  111.419
   23720.4  115.859
   24050.3  120.475
   24384.9  125.271
   24724.1  130.257
   25068.1  135.437
   25416.8  140.820
   25770.4  146.415
   26128.9  152.277
   26492.4  158.456
   26860.9  164.937
   27234.6  171.683
   27613.5  178.704
   27997.6  186.010
   28387.1  193.615
   28782.0  201.528
   29182.4  209.762
   29588.4  218.331
   30000.0  227.244