# C22H10N2O5 Density=1.43, Angle=90.deg
# Photon Energy (eV), Atten Length (microns)
   30.0000  2.034155E-02
   30.4173  2.087197E-02
   30.8405  2.141389E-02
   31.2695  2.196813E-02
   31.7045  2.253477E-02
   32.1456  2.311394E-02
   32.5928  2.370440E-02
   33.0462  2.430579E-02
   33.5059  2.491906E-02
   33.9720  2.554539E-02
   34.4446  2.618499E-02
   34.9238  2.683791E-02
   35.4096  2.748740E-02
   35.9022  2.814628E-02
   36.4017  2.885512E-02
   36.9081  2.961254E-02
   37.4215  3.034976E-02
   37.9421  3.115466E-02
   38.4699  3.197980E-02
   39.0051  3.282591E-02
   39.5477  3.372615E-02
   40.0979  3.468214E-02
   40.6557  3.567730E-02
   41.2213  3.669921E-02
   41.7947  3.774872E-02
   42.3761  3.882603E-02
   42.9656  3.993208E-02
   43.5633  4.106753E-02
   44.1694  4.223289E-02
   44.7838  4.342244E-02
   45.4068  4.459110E-02
   46.0385  4.570445E-02
   46.6790  4.684938E-02
   47.3283  4.802487E-02
   47.9867  4.922860E-02
   48.6543  5.048447E-02
   49.3312  5.182296E-02
   50.0174  5.323209E-02
   50.7132  5.467929E-02
   51.4187  5.616561E-02
   52.1340  5.769191E-02
   52.8593  5.925903E-02
   53.5946  6.071521E-02
   54.3402  6.216341E-02
   55.0962  6.366055E-02
   55.8626  6.520049E-02
   56.6397  6.677742E-02
   57.4277  6.839210E-02
   58.2266  7.004523E-02
   59.0366  7.173996E-02
   59.8579  7.347820E-02
   60.6906  7.529335E-02
   61.5349  7.725032E-02
   62.3909  7.939757E-02
   63.2589  8.160377E-02
   64.1389  8.387130E-02
   65.0311  8.620121E-02
   65.9358  8.859480E-02
   66.8531  9.105400E-02
   67.7831  9.358066E-02
   68.7260  9.617727E-02
   69.6821  9.884810E-02
   70.6515  0.101586
   71.6343  0.104401
   72.6309  0.107294
   73.6413  0.110267
   74.6657  0.113321
   75.7044  0.116459
   76.7576  0.119683
   77.8254  0.122995
   78.9080  0.126400
   80.0058  0.129900
   81.1188  0.133498
   82.2472  0.137197
   83.3914  0.141001
   84.5515  0.144909
   85.7277  0.148924
   86.9203  0.153049
   88.1295  0.157288
   89.3555  0.161643
   90.5985  0.166118
   91.8589  0.170718
   93.1368  0.175445
   94.4325  0.180301
   95.7461  0.185290
   97.0781  0.190416
   98.4286  0.195762
   99.7979  0.201478
   101.186  0.207577
   102.594  0.213869
   104.021  0.220346
   105.468  0.227021
   106.935  0.233897
   108.423  0.240982
   109.931  0.248281
   111.461  0.255800
   113.011  0.263547
   114.583  0.271528
   116.177  0.279748
   117.793  0.288219
   119.432  0.296946
   121.094  0.305936
   122.778  0.315199
   124.486  0.324741
   126.218  0.334572
   127.974  0.344703
   129.754  0.355141
   131.559  0.365913
   133.389  0.377233
   135.245  0.389025
   137.126  0.401077
   139.034  0.413502
   140.968  0.426310
   142.929  0.439511
   144.918  0.453123
   146.934  0.467155
   148.978  0.481619
   151.050  0.496531
   153.152  0.511905
   155.282  0.527748
   157.442  0.544085
   159.632  0.560940
   161.853  0.578371
   164.105  0.596417
   166.388  0.615081
   168.702  0.634332
   171.049  0.654181
   173.429  0.674646
   175.841  0.695753
   178.288  0.717516
   180.768  0.740423
   183.283  0.765326
   185.832  0.793093
   188.418  0.824033
   191.039  0.856243
   193.696  0.889701
   196.391  0.924468
   199.123  0.960593
   201.893  0.998129
   204.702  1.03713
   207.549  1.07765
   210.437  1.11975
   213.364  1.16350
   216.332  1.20895
   219.342  1.25595
   222.393  1.30428
   225.487  1.35394
   228.624  1.40549
   231.804  1.45899
   235.029  1.51453
   238.298  1.57163
   241.614  1.62903
   244.975  1.68798
   248.383  1.75195
   251.838  1.82385
   255.341  1.89861
   258.894  1.97638
   262.495  2.05726
   266.147  2.14137
   269.849  2.22884
   273.603  2.31986
   277.409  2.41471
   281.269  2.51362
   285.181  0.189646
   289.149  0.195584
   293.171  0.201708
   297.250  0.208024
   301.385  0.214537
   305.577  0.221255
   309.828  0.228181
   314.139  0.235333
   318.509  0.242714
   322.940  0.250327
   327.432  0.258177
   331.987  0.266273
   336.606  0.274623
   341.288  0.283235
   346.036  0.292116
   350.850  0.301274
   355.731  0.310719
   360.679  0.320460
   365.697  0.330506
   370.784  0.340865
   375.942  0.351587
   381.172  0.363373
   386.475  0.375999
   391.851  0.389124
   397.303  0.402708
   402.830  0.416767
   408.433  0.431317
   414.115  0.393228
   419.876  0.406819
   425.717  0.420881
   431.640  0.435430
   437.644  0.450481
   443.733  0.466051
   449.905  0.482159
   456.164  0.498823
   462.510  0.516061
   468.944  0.533895
   475.468  0.552345
   482.082  0.571443
   488.789  0.591363
   495.589  0.612158
   502.483  0.633685
   509.473  0.655969
   516.561  0.679035
   523.747  0.702912
   531.033  0.727628
   538.420  0.753213
   545.910  0.531573
   553.505  0.550163
   561.205  0.569403
   569.012  0.589401
   576.928  0.610062
   584.953  0.631417
   593.091  0.653500
   601.342  0.676345
   609.707  0.699990
   618.189  0.724462
   626.789  0.749812
   635.508  0.776245
   644.349  0.803890
   653.313  0.832747
   662.402  0.862749
   671.616  0.893553
   680.959  0.924466
   690.433  0.955473
   700.037  0.987248
   709.776  1.02178
   719.650  1.05905
   729.661  1.09834
   739.812  1.13908
   750.104  1.18134
   760.539  1.22517
   771.119  1.27078
   781.846  1.31844
   792.723  1.36822
   803.751  1.42002
   814.932  1.47378
   826.269  1.52957
   837.763  1.58746
   849.418  1.64724
   861.234  1.70897
   873.215  1.77273
   885.363  1.83875
   897.679  1.90721
   910.167  1.97821
   922.829  2.05186
   935.667  2.12979
   948.683  2.21102
   961.881  2.29565
   975.262  2.38364
   988.829  2.47501
   1002.59  2.56981
   1016.53  2.66818
   1030.67  2.76973
   1045.01  2.87605
   1059.55  2.98741
   1074.29  3.10341
   1089.23  3.22390
   1104.39  3.34911
   1119.75  3.47924
   1135.33  3.61432
   1151.12  3.75462
   1167.14  3.90041
   1183.37  4.05184
   1199.83  4.20914
   1216.53  4.37255
   1233.45  4.54245
   1250.61  4.71980
   1268.01  4.90515
   1285.65  5.09909
   1303.53  5.30101
   1321.66  5.51089
   1340.05  5.72908
   1358.69  5.95593
   1377.59  6.19172
   1396.76  6.43682
   1416.19  6.69167
   1435.89  6.95659
   1455.87  7.23213
   1476.12  7.51897
   1496.65  7.81810
   1517.47  8.13130
   1538.58  8.45736
   1559.99  8.79640
   1581.69  9.14911
   1603.69  9.51602
   1626.00  9.89762
   1648.62  10.2945
   1671.56  10.7073
   1694.81  11.1367
   1718.39  11.5832
   1742.29  12.0501
   1766.53  12.5375
   1791.11  13.0456
   1816.02  13.5749
   1841.29  14.1257
   1866.90  14.6987
   1892.87  15.2950
   1919.20  15.9154
   1945.90  16.5609
   1972.97  17.2327
   2000.42  17.9302
   2028.25  18.6528
   2056.46  19.4132
   2085.07  20.2053
   2114.08  21.0305
   2143.49  21.8900
   2173.31  22.7854
   2203.54  23.7182
   2234.20  24.6901
   2265.28  25.7024
   2296.79  26.7575
   2328.74  27.8566
   2361.14  29.0022
   2393.98  30.1958
   2427.29  31.4394
   2461.05  32.7353
   2495.29  34.0858
   2530.00  35.4935
   2565.20  36.9604
   2600.89  38.4896
   2637.07  40.0832
   2673.75  41.7442
   2710.95  43.4763
   2748.66  45.2815
   2786.90  47.1634
   2825.67  49.1241
   2864.98  51.1705
   2904.83  53.3039
   2945.24  55.5278
   2986.22  57.8470
   3027.76  60.2649
   3069.88  62.7874
   3112.59  65.4187
   3155.89  68.1630
   3199.79  71.0254
   3244.30  74.0112
   3289.44  77.1261
   3335.20  80.3758
   3381.59  83.7650
   3428.64  87.3027
   3476.33  90.9945
   3524.69  94.8472
   3573.73  98.8685
   3623.44  103.066
   3673.85  107.448
   3724.96  112.021
   3776.78  116.795
   3829.32  121.782
   3882.59  126.988
   3936.60  132.423
   3991.36  138.094
   4046.89  144.008
   4103.19  150.195
   4160.27  156.655
   4218.14  163.393
   4276.82  170.429
   4336.32  177.772
   4396.64  185.435
   4457.81  193.433
   4519.82  201.783
   4582.70  210.499
   4646.45  219.600
   4711.09  229.098
   4776.63  239.013
   4843.08  249.362
   4910.45  260.167
   4978.76  271.444
   5048.02  283.221
   5118.25  295.518
   5189.45  308.352
   5261.64  321.753
   5334.84  335.746
   5409.05  350.356
   5484.30  365.612
   5560.60  381.540
   5637.95  398.158
   5716.38  415.515
   5795.91  433.640
   5876.54  452.570
   5958.29  472.333
   6041.17  492.963
   6125.21  514.499
   6210.42  537.005
   6296.82  560.495
   6384.42  585.020
   6473.23  610.627
   6563.29  637.366
   6654.59  665.286
   6747.17  694.429
   6841.03  724.853
   6936.19  756.619
   7032.69  789.787
   7130.52  824.413
   7229.72  860.558
   7330.29  898.287
   7432.27  937.652
   7535.66  978.775
   7640.49  1021.68
   7746.78  1066.46
   7854.55  1113.20
   7963.82  1161.97
   8074.61  1212.87
   8186.93  1266.01
   8300.83  1321.46
   8416.30  1379.33
   8533.39  1439.70
   8652.10  1502.66
   8772.46  1568.34
   8894.49  1636.84
   9018.23  1708.29
   9143.69  1782.77
   9270.89  1860.44
   9399.86  1941.40
   9530.62  2025.77
   9663.21  2113.72
   9797.64  2205.37
   9933.93  2300.81
   10072.1  2400.32
   10212.2  2504.01
   10354.3  2612.01
   10498.4  2724.45
   10644.4  2841.48
   10792.5  2963.28
   10942.6  3090.00
   11094.8  3221.80
   11249.2  3358.92
   11405.7  3501.45
   11564.4  3649.58
   11725.2  3803.47
   11888.3  3963.29
   12053.7  4129.24
   12221.4  4301.44
   12391.4  4480.18
   12563.8  4665.50
   12738.6  4857.60
   12915.8  5056.63
   13095.5  5262.76
   13277.7  5476.20
   13462.4  5696.97
   13649.6  5925.33
   13839.5  6161.30
   14032.1  6405.08
   14227.3  6656.71
   14425.2  6916.32
   14625.9  7183.98
   14829.3  7459.63
   15035.6  7743.78
   15244.8  8037.47
   15456.9  8339.61
   15671.9  8650.20
   15889.9  8969.18
   16111.0  9296.52
   16335.1  9632.16
   16562.3  9976.12
   16792.7  10328.2
   17026.3  10688.3
   17263.2  11056.3
   17503.4  11431.8
   17746.9  11814.7
   17993.7  12204.9
   18244.1  12601.9
   18497.9  13005.4
   18755.2  13415.2
   19016.1  13830.8
   19280.6  14251.8
   19548.9  14677.8
   19820.8  15102.9
   20096.5  15513.5
   20376.1  15966.7
   20659.6  16424.2
   20947.0  16885.6
   21238.4  17350.2
   21533.8  17817.7
   21833.4  18287.4
   22137.1  18759.0
   22445.1  19231.9
   22757.3  19705.4
   23073.9  20179.1
   23394.9  20652.3
   23720.4  21124.7
   24050.3  21595.6
   24384.9  22064.4
   24724.1  22530.6
   25068.1  22993.7
   25416.8  23453.3
   25770.4  23908.7
   26128.9  24359.6
   26492.4  24805.4
   26860.9  25245.6
   27234.6  25679.9
   27613.5  26107.9
   27997.6  26529.1
   28387.1  26943.2
   28782.0  27349.9
   29182.4  27748.9
   29588.4  28139.9
   30000.0  28522.5
