# Al Density=2.699, Angle=90.deg
# Photon Energy (eV), Atten Length (microns)
   30.0000  0.410284
   30.4173  0.409342
   30.8405  0.408401
   31.2695  0.407462
   31.7045  0.406526
   32.1456  0.405591
   32.5928  0.405028
   33.0462  0.405809
   33.5059  0.407478
   33.9720  0.409155
   34.4446  0.410837
   34.9238  0.412527
   35.4096  0.414223
   35.9022  0.415927
   36.4017  0.417638
   36.9081  0.419354
   37.4215  0.421078
   37.9421  0.422810
   38.4699  0.424550
   39.0051  0.426296
   39.5477  0.428049
   40.0979  0.429809
   40.6557  0.431749
   41.2213  0.434375
   41.7947  0.438069
   42.3761  0.441796
   42.9656  0.445554
   43.5633  0.449344
   44.1694  0.453166
   44.7838  0.457020
   45.4068  0.460908
   46.0385  0.464829
   46.6790  0.468782
   47.3283  0.472770
   47.9867  0.482283
   48.6543  0.494906
   49.3312  0.508742
   50.0174  0.522964
   50.7132  0.537583
   51.4187  0.552612
   52.1340  0.568062
   52.8593  0.583942
   53.5946  0.598695
   54.3402  0.612430
   55.0962  0.625864
   55.8626  0.639592
   56.6397  0.653622
   57.4277  0.667958
   58.2266  0.682612
   59.0366  0.697585
   59.8579  0.709907
   60.6906  0.719636
   61.5349  0.728410
   62.3909  0.737290
   63.2589  0.746281
   64.1389  0.735996
   65.0311  0.723850
   65.9358  0.711593
   66.8531  0.699542
   67.7831  0.688352
   68.7260  0.678772
   69.6821  0.669542
   70.6515  0.660435
   71.6343  0.651453
   72.6309  0.441746
   73.6413  5.505527E-02
   74.6657  5.321571E-02
   75.7044  5.143770E-02
   76.7576  4.971907E-02
   77.8254  4.805754E-02
   78.9080  4.645164E-02
   80.0058  4.489952E-02
   81.1188  4.346608E-02
   82.2472  4.213552E-02
   83.3914  4.084970E-02
   84.5515  3.960324E-02
   85.7277  3.839472E-02
   86.9203  3.757514E-02
   88.1295  3.714165E-02
   89.3555  3.683041E-02
   90.5985  3.652181E-02
   91.8589  3.621580E-02
   93.1368  3.591234E-02
   94.4325  3.561142E-02
   95.7461  3.531306E-02
   97.0781  3.501721E-02
   98.4286  3.472380E-02
   99.7979  3.443281E-02
   101.186  3.414428E-02
   102.594  3.386137E-02
   104.021  3.360423E-02
   105.468  3.341162E-02
   106.935  3.322284E-02
   108.423  3.303506E-02
   109.931  3.284824E-02
   111.461  3.266247E-02
   113.011  3.247787E-02
   114.583  3.229431E-02
   116.177  3.211195E-02
   117.793  3.193033E-02
   119.432  3.174981E-02
   121.094  3.157039E-02
   122.778  3.139195E-02
   124.486  3.129770E-02
   126.218  3.157169E-02
   127.974  3.197146E-02
   129.754  3.237634E-02
   131.559  3.278632E-02
   133.389  3.320147E-02
   135.245  3.362189E-02
   137.126  3.404767E-02
   139.034  3.447880E-02
   140.968  3.491538E-02
   142.929  3.535751E-02
   144.918  3.580526E-02
   146.934  3.625864E-02
   148.978  3.671778E-02
   151.050  3.721505E-02
   153.152  3.781791E-02
   155.282  3.843414E-02
   157.442  3.906044E-02
   159.632  3.969697E-02
   161.853  4.034388E-02
   164.105  4.100128E-02
   166.388  4.166940E-02
   168.702  4.234846E-02
   171.049  4.303852E-02
   173.429  4.373981E-02
   175.841  4.445260E-02
   178.288  4.530822E-02
   180.768  4.648212E-02
   183.283  4.794347E-02
   185.832  4.945090E-02
   188.418  5.100543E-02
   191.039  5.260922E-02
   193.696  5.426305E-02
   196.391  5.596906E-02
   199.123  5.772886E-02
   201.893  5.955276E-02
   204.702  6.145124E-02
   207.549  6.341009E-02
   210.437  6.543194E-02
   213.364  6.751770E-02
   216.332  6.967010E-02
   219.342  7.189128E-02
   222.393  7.414716E-02
   225.487  7.635821E-02
   228.624  7.843328E-02
   231.804  8.056473E-02
   235.029  8.275416E-02
   238.298  8.500306E-02
   241.614  8.731299E-02
   244.975  8.968563E-02
   248.383  9.212290E-02
   251.838  9.462668E-02
   255.341  9.719804E-02
   258.894  9.983954E-02
   262.495  0.102553
   266.147  0.105435
   269.849  0.108775
   273.603  0.112629
   277.409  0.116620
   281.269  0.120752
   285.181  0.125030
   289.149  0.129460
   293.171  0.134046
   297.250  0.138796
   301.385  0.143713
   305.577  0.148805
   309.828  0.154077
   314.139  0.159536
   318.509  0.165188
   322.940  0.171041
   327.432  0.177101
   331.987  0.183375
   336.606  0.189873
   341.288  0.196600
   346.036  0.203565
   350.850  0.210777
   355.731  0.218245
   360.679  0.225660
   365.697  0.232969
   370.784  0.240390
   375.942  0.248047
   381.172  0.255948
   386.475  0.264102
   391.851  0.272514
   397.303  0.281194
   402.830  0.290151
   408.433  0.299393
   414.115  0.308931
   419.876  0.318771
   425.717  0.328925
   431.640  0.339402
   437.644  0.350633
   443.733  0.362664
   449.905  0.375287
   456.164  0.388336
   462.510  0.401841
   468.944  0.415822
   475.468  0.430285
   482.082  0.445254
   488.789  0.460760
   495.589  0.476869
   502.483  0.493686
   509.473  0.511329
   516.561  0.529720
   523.747  0.548738
   531.033  0.568375
   538.420  0.588667
   545.910  0.609658
   553.505  0.631474
   561.205  0.654458
   569.012  0.678544
   576.928  0.703783
   584.953  0.730055
   593.091  0.757357
   601.342  0.785702
   609.707  0.815106
   618.189  0.845614
   626.789  0.877317
   635.508  0.910774
   644.349  0.946308
   653.313  0.983901
   662.402  1.02329
   671.616  1.06362
   680.959  1.10332
   690.433  1.14251
   700.037  1.18255
   709.776  1.22544
   719.650  1.27122
   729.661  1.31930
   739.812  1.36919
   750.104  1.42099
   760.539  1.47475
   771.119  1.53067
   781.846  1.58904
   792.723  1.64992
   803.751  1.71328
   814.932  1.77908
   826.269  1.84743
   837.763  1.91841
   849.418  1.99213
   861.234  2.06877
   873.215  2.14846
   885.363  2.23127
   897.679  2.31724
   910.167  2.40653
   922.829  2.49924
   935.667  2.59586
   948.683  2.69619
   961.881  2.80039
   975.262  2.90866
   988.829  3.02105
   1002.59  3.13748
   1016.53  3.25792
   1030.67  3.37954
   1045.01  3.50787
   1059.55  3.64343
   1074.29  3.78509
   1089.23  3.93229
   1104.39  4.08521
   1119.75  4.24409
   1135.33  4.40911
   1151.12  4.58053
   1167.14  4.75866
   1183.37  4.94372
   1199.83  5.13597
   1216.53  5.33570
   1233.45  5.54305
   1250.61  5.75717
   1268.01  5.97795
   1285.65  6.20553
   1303.53  6.44137
   1321.66  6.68619
   1340.05  6.94032
   1358.69  7.20411
   1377.59  7.47791
   1396.76  7.76206
   1416.19  8.05696
   1435.89  8.36314
   1455.87  8.68236
   1476.12  9.01672
   1496.65  9.37050
   1517.47  9.75494
   1538.58  10.1581
   1559.99  0.889774
   1581.69  0.919303
   1603.69  0.949814
   1626.00  0.981332
   1648.62  1.01389
   1671.56  1.04754
   1694.81  1.08230
   1718.39  1.11821
   1742.29  1.15619
   1766.53  1.19605
   1791.11  1.23761
   1816.02  1.28083
   1841.29  1.32556
   1866.90  1.37185
   1892.87  1.41976
   1919.20  1.46934
   1945.90  1.52064
   1972.97  1.57374
   2000.42  1.62845
   2028.25  1.68461
   2056.46  1.74478
   2085.07  1.80747
   2114.08  1.87263
   2143.49  1.94032
   2173.31  2.01072
   2203.54  2.08395
   2234.20  2.16001
   2265.28  2.23913
   2296.79  2.32139
   2328.74  2.40691
   2361.14  2.49587
   2393.98  2.58835
   2427.29  2.68447
   2461.05  2.78441
   2495.29  2.88846
   2530.00  2.99662
   2565.20  3.10909
   2600.89  3.22603
   2637.07  3.34766
   2673.75  3.47416
   2710.95  3.60567
   2748.66  3.74258
   2786.90  3.88494
   2825.67  4.03302
   2864.98  4.18705
   2904.83  4.34727
   2945.24  4.51395
   2986.22  4.68734
   3027.76  4.86763
   3069.88  5.05530
   3112.59  5.25056
   3155.89  5.45366
   3199.79  5.66497
   3244.30  5.88481
   3289.44  6.11354
   3335.20  6.35163
   3381.59  6.59928
   3428.64  6.85699
   3476.33  7.12515
   3524.69  7.40426
   3573.73  7.69472
   3623.44  7.99692
   3673.85  8.31142
   3724.96  8.63878
   3776.78  8.97946
   3829.32  9.33400
   3882.59  9.70303
   3936.60  10.0871
   3991.36  10.4868
   4046.89  10.9029
   4103.19  11.3360
   4160.27  11.7870
   4218.14  12.2563
   4276.82  12.7447
   4336.32  13.2533
   4396.64  13.7827
   4457.81  14.3338
   4519.82  14.9074
   4582.70  15.5051
   4646.45  16.1269
   4711.09  16.7743
   4776.63  17.4485
   4843.08  18.1504
   4910.45  18.8810
   4978.76  19.6420
   5048.02  20.4342
   5118.25  21.2590
   5189.45  22.1183
   5261.64  23.0129
   5334.84  23.9443
   5409.05  24.9139
   5484.30  25.9238
   5560.60  26.9764
   5637.95  28.0715
   5716.38  29.2118
   5795.91  30.3994
   5876.54  31.6362
   5958.29  32.9248
   6041.17  34.2676
   6125.21  35.6638
   6210.42  37.1202
   6296.82  38.6368
   6384.42  40.2162
   6473.23  41.8612
   6563.29  43.5746
   6654.59  45.3594
   6747.17  47.2178
   6841.03  49.1547
   6936.19  51.1716
   7032.69  53.2726
   7130.52  55.4613
   7229.72  57.7413
   7330.29  60.1164
   7432.27  62.5905
   7535.66  65.1683
   7640.49  67.8539
   7746.78  70.6514
   7854.55  73.5662
   7963.82  76.6027
   8074.61  79.7654
   8186.93  83.0608
   8300.83  86.4952
   8416.30  90.0725
   8533.39  93.8012
   8652.10  97.6854
   8772.46  101.732
   8894.49  105.947
   9018.23  110.341
   9143.69  114.919
   9270.89  119.689
   9399.86  124.659
   9530.62  129.836
   9663.21  135.231
   9797.64  140.854
   9933.93  146.709
   10072.1  152.814
   10212.2  159.177
   10354.3  165.807
   10498.4  172.715
   10644.4  179.913
   10792.5  187.415
   10942.6  195.232
   11094.8  203.378
   11249.2  211.868
   11405.7  220.717
   11564.4  229.936
   11725.2  239.542
   11888.3  249.553
   12053.7  259.986
   12221.4  270.856
   12391.4  282.188
   12563.8  293.992
   12738.6  306.294
   12915.8  319.112
   13095.5  332.469
   13277.7  346.390
   13462.4  360.893
   13649.6  376.008
   13839.5  391.756
   14032.1  408.167
   14227.3  425.264
   14425.2  443.079
   14625.9  461.641
   14829.3  480.973
   15035.6  501.124
   15244.8  522.135
   15456.9  544.028
   15671.9  566.839
   15889.9  590.602
   16111.0  615.357
   16335.1  641.142
   16562.3  668.009
   16792.7  695.998
   17026.3  725.153
   17263.2  755.523
   17503.4  787.147
   17746.9  820.083
   17993.7  854.390
   18244.1  890.105
   18497.9  927.306
   18755.2  966.045
   19016.1  1006.37
   19280.6  1048.35
   19548.9  1092.05
   19820.8  1137.58
   20096.5  1185.22
   20376.1  1234.55
   20659.6  1285.85
   20947.0  1339.18
   21238.4  1394.60
   21533.8  1452.20
   21833.4  1512.03
   22137.1  1574.21
   22445.1  1638.77
   22757.3  1705.82
   23073.9  1775.42
   23394.9  1847.65
   23720.4  1922.61
   24050.3  2000.37
   24384.9  2081.00
   24724.1  2164.60
   25068.1  2251.25
   25416.8  2341.04
   25770.4  2434.05
   26128.9  2530.37
   26492.4  2630.07
   26860.9  2733.21
   27234.6  2839.92
   27613.5  2950.25
   27997.6  3064.29
   28387.1  3182.10
   28782.0  3303.76
   29182.4  3429.34
   29588.4  3558.90
   30000.0  3692.49