# C Density=3.51, Angle=90.deg
# Photon Energy (eV), Atten Length (microns)
   30.0000  9.156052E-03
   30.4173  9.445773E-03
   30.8405  9.744771E-03
   31.2695  1.005328E-02
   31.7045  1.037151E-02
   32.1456  1.069985E-02
   32.5928  1.103856E-02
   33.0462  1.138798E-02
   33.5059  1.174846E-02
   33.9720  1.212035E-02
   34.4446  1.250405E-02
   34.9238  1.289983E-02
   35.4096  1.329392E-02
   35.9022  1.369685E-02
   36.4017  1.411134E-02
   36.9081  1.453836E-02
   37.4215  1.497829E-02
   37.9421  1.543157E-02
   38.4699  1.589846E-02
   39.0051  1.637959E-02
   39.5477  1.690452E-02
   40.0979  1.747548E-02
   40.6557  1.807830E-02
   41.2213  1.870191E-02
   41.7947  1.934705E-02
   42.3761  2.001436E-02
   42.9656  2.070478E-02
   43.5633  2.141907E-02
   44.1694  2.215788E-02
   44.7838  2.291569E-02
   45.4068  2.364737E-02
   46.0385  2.431576E-02
   46.6790  2.500310E-02
   47.3283  2.570976E-02
   47.9867  2.643636E-02
   48.6543  2.718351E-02
   49.3312  2.795186E-02
   50.0174  2.874191E-02
   50.7132  2.955431E-02
   51.4187  3.038975E-02
   52.1340  3.124877E-02
   52.8593  3.213186E-02
   53.5946  3.297254E-02
   54.3402  3.376746E-02
   55.0962  3.454911E-02
   55.8626  3.534893E-02
   56.6397  3.616733E-02
   57.4277  3.700470E-02
   58.2266  3.786122E-02
   59.0366  3.873775E-02
   59.8579  3.963454E-02
   60.6906  4.058576E-02
   61.5349  4.165730E-02
   62.3909  4.289769E-02
   63.2589  4.417485E-02
   64.1389  4.549027E-02
   65.0311  4.684500E-02
   65.9358  4.823990E-02
   66.8531  4.967627E-02
   67.7831  5.115540E-02
   68.7260  5.267859E-02
   69.6821  5.424695E-02
   70.6515  5.586251E-02
   71.6343  5.752593E-02
   72.6309  5.923871E-02
   73.6413  6.100256E-02
   74.6657  6.281898E-02
   75.7044  6.468938E-02
   76.7576  6.661548E-02
   77.8254  6.859916E-02
   78.9080  7.064175E-02
   80.0058  7.274522E-02
   81.1188  7.491129E-02
   82.2472  7.714184E-02
   83.3914  7.943887E-02
   84.5515  8.180421E-02
   85.7277  8.424009E-02
   86.9203  8.674841E-02
   88.1295  8.933146E-02
   89.3555  9.199142E-02
   90.5985  9.473056E-02
   91.8589  9.755130E-02
   93.1368  0.100456
   94.4325  0.103447
   95.7461  0.106527
   97.0781  0.109699
   98.4286  0.112966
   99.7979  0.116330
   101.186  0.119794
   102.594  0.123361
   104.021  0.127033
   105.468  0.130816
   106.935  0.134711
   108.423  0.138722
   109.931  0.142853
   111.461  0.147107
   113.011  0.151488
   114.583  0.155999
   116.177  0.160643
   117.793  0.165426
   119.432  0.170352
   121.094  0.175425
   122.778  0.180648
   124.486  0.186027
   126.218  0.191565
   127.974  0.197271
   129.754  0.203145
   131.559  0.209193
   133.389  0.215670
   135.245  0.222565
   137.126  0.229681
   139.034  0.237025
   140.968  0.244604
   142.929  0.252423
   144.918  0.260494
   146.934  0.268822
   148.978  0.277417
   151.050  0.286287
   153.152  0.295442
   155.282  0.304886
   157.442  0.314634
   159.632  0.324695
   161.853  0.335077
   164.105  0.345789
   166.388  0.356844
   168.702  0.368254
   171.049  0.380028
   173.429  0.392178
   175.841  0.404717
   178.288  0.417657
   180.768  0.431010
   183.283  0.444790
   185.832  0.459462
   188.418  0.477207
   191.039  0.495704
   193.696  0.514915
   196.391  0.534871
   199.123  0.555602
   201.893  0.577136
   204.702  0.599504
   207.549  0.622736
   210.437  0.646876
   213.364  0.671945
   216.332  0.697989
   219.342  0.724772
   222.393  0.751930
   225.487  0.779394
   228.624  0.807864
   231.804  0.837376
   235.029  0.867965
   238.298  0.899672
   241.614  0.932534
   244.975  0.967467
   248.383  1.00708
   251.838  1.05486
   255.341  1.10489
   258.894  1.15731
   262.495  1.21221
   266.147  1.26972
   269.849  1.32995
   273.603  1.39304
   277.409  1.45913
   281.269  1.52834
   285.181  5.557274E-02
   289.149  5.730324E-02
   293.171  5.908770E-02
   297.250  6.092769E-02
   301.385  6.282511E-02
   305.577  6.478169E-02
   309.828  6.679867E-02
   314.139  6.887887E-02
   318.509  7.102395E-02
   322.940  7.323585E-02
   327.432  7.551631E-02
   331.987  7.786777E-02
   336.606  8.029276E-02
   341.288  8.279347E-02
   346.036  8.537154E-02
   350.850  8.802994E-02
   355.731  9.077118E-02
   360.679  9.359791E-02
   365.697  9.651264E-02
   370.784  9.951822E-02
   375.942  0.102629
   381.172  0.106057
   386.475  0.109734
   391.851  0.113554
   397.303  0.117508
   402.830  0.121600
   408.433  0.125834
   414.115  0.130216
   419.876  0.134750
   425.717  0.139442
   431.640  0.144298
   437.644  0.149323
   443.733  0.154522
   449.905  0.159903
   456.164  0.165471
   462.510  0.171232
   468.944  0.177195
   475.468  0.183364
   482.082  0.189753
   488.789  0.196428
   495.589  0.203409
   502.483  0.210639
   509.473  0.218126
   516.561  0.225878
   523.747  0.233906
   531.033  0.242220
   538.420  0.250830
   545.910  0.259744
   553.505  0.268976
   561.205  0.278536
   569.012  0.288438
   576.928  0.298689
   584.953  0.309304
   593.091  0.320297
   601.342  0.331682
   609.707  0.343471
   618.189  0.355677
   626.789  0.368320
   635.508  0.381411
   644.349  0.394968
   653.313  0.409005
   662.402  0.423542
   671.616  0.438507
   680.959  0.453677
   690.433  0.469007
   700.037  0.484727
   709.776  0.502026
   719.650  0.520894
   729.661  0.540890
   739.812  0.561650
   750.104  0.583208
   760.539  0.605594
   771.119  0.628844
   781.846  0.652998
   792.723  0.678087
   803.751  0.704149
   814.932  0.731212
   826.269  0.759311
   837.763  0.788483
   849.418  0.818869
   861.234  0.850517
   873.215  0.883475
   885.363  0.917741
   897.679  0.953330
   910.167  0.990299
   922.829  1.02870
   935.667  1.06879
   948.683  1.11047
   961.881  1.15381
   975.262  1.19886
   988.829  1.24568
   1002.59  1.29431
   1016.53  1.34483
   1030.67  1.39720
   1045.01  1.45210
   1059.55  1.50970
   1074.29  1.56974
   1089.23  1.63216
   1104.39  1.69710
   1119.75  1.76467
   1135.33  1.83485
   1151.12  1.90782
   1167.14  1.98371
   1183.37  2.06260
   1199.83  2.14463
   1216.53  2.22993
   1233.45  2.31870
   1250.61  2.41148
   1268.01  2.50855
   1285.65  2.61021
   1303.53  2.71615
   1321.66  2.82637
   1340.05  2.94108
   1358.69  3.06047
   1377.59  3.18469
   1396.76  3.31393
   1416.19  3.44844
   1435.89  3.58842
   1455.87  3.73413
   1476.12  3.88588
   1496.65  4.04412
   1517.47  4.20953
   1538.58  4.38184
   1559.99  4.56123
   1581.69  4.74797
   1603.69  4.94235
   1626.00  5.14470
   1648.62  5.35534
   1671.56  5.57457
   1694.81  5.80277
   1718.39  6.04024
   1742.29  6.28866
   1766.53  6.54811
   1791.11  6.81874
   1816.02  7.10084
   1841.29  7.39460
   1866.90  7.70045
   1892.87  8.01894
   1919.20  8.35060
   1945.90  8.69597
   1972.97  9.05565
   2000.42  9.42947
   2028.25  9.81712
   2056.46  10.2251
   2085.07  10.6502
   2114.08  11.0933
   2143.49  11.5553
   2173.31  12.0368
   2203.54  12.5387
   2234.20  13.0620
   2265.28  13.6074
   2296.79  14.1762
   2328.74  14.7690
   2361.14  15.3875
   2393.98  16.0322
   2427.29  16.7041
   2461.05  17.4048
   2495.29  18.1358
   2530.00  18.8977
   2565.20  19.6922
   2600.89  20.5211
   2637.07  21.3852
   2673.75  22.2863
   2710.95  23.2269
   2748.66  24.2074
   2786.90  25.2301
   2825.67  26.2958
   2864.98  27.4094
   2904.83  28.5704
   2945.24  29.7808
   2986.22  31.0441
   3027.76  32.3620
   3069.88  33.7372
   3112.59  35.1722
   3155.89  36.6694
   3199.79  38.2317
   3244.30  39.8620
   3289.44  41.5633
   3335.20  43.3388
   3381.59  45.1914
   3428.64  47.1257
   3476.33  49.1446
   3524.69  51.2520
   3573.73  53.4520
   3623.44  55.7487
   3673.85  58.1459
   3724.96  60.6486
   3776.78  63.2620
   3829.32  65.9918
   3882.59  68.8416
   3936.60  71.8171
   3991.36  74.9166
   4046.89  78.1415
   4103.19  81.5287
   4160.27  85.0671
   4218.14  88.7594
   4276.82  92.6155
   4336.32  96.6417
   4396.64  100.844
   4457.81  105.232
   4519.82  109.814
   4582.70  114.600
   4646.45  119.599
   4711.09  124.817
   4776.63  130.266
   4843.08  135.955
   4910.45  141.896
   4978.76  148.100
   5048.02  154.579
   5118.25  161.348
   5189.45  168.414
   5261.64  175.794
   5334.84  183.504
   5409.05  191.556
   5484.30  199.968
   5560.60  208.752
   5637.95  217.916
   5716.38  227.492
   5795.91  237.497
   5876.54  247.949
   5958.29  258.863
   6041.17  270.256
   6125.21  282.152
   6210.42  294.590
   6296.82  307.577
   6384.42  321.138
   6473.23  335.299
   6563.29  350.087
   6654.59  365.530
   6747.17  381.654
   6841.03  398.492
   6936.19  416.074
   7032.69  434.436
   7130.52  453.607
   7229.72  473.618
   7330.29  494.509
   7432.27  516.308
   7535.66  539.077
   7640.49  562.837
   7746.78  587.630
   7854.55  613.506
   7963.82  640.511
   8074.61  668.700
   8186.93  698.117
   8300.83  728.806
   8416.30  760.831
   8533.39  794.228
   8652.10  829.051
   8772.46  865.365
   8894.49  903.233
   9018.23  942.711
   9143.69  983.847
   9270.89  1026.72
   9399.86  1071.39
   9530.62  1117.90
   9663.21  1166.37
   9797.64  1216.84
   9933.93  1269.35
   10072.1  1324.06
   10212.2  1381.02
   10354.3  1440.29
   10498.4  1501.93
   10644.4  1566.02
   10792.5  1632.64
   10942.6  1701.86
   11094.8  1773.75
   11249.2  1848.43
   11405.7  1925.94
   11564.4  2006.35
   11725.2  2089.74
   11888.3  2176.18
   12053.7  2265.75
   12221.4  2358.48
   12391.4  2454.52
   12563.8  2553.86
   12738.6  2656.57
   12915.8  2762.69
   13095.5  2872.28
   13277.7  2985.41
   13462.4  3102.07
   13649.6  3222.32
   13839.5  3346.15
   14032.1  3473.60
   14227.3  3604.66
   14425.2  3739.31
   14625.9  3877.56
   14829.3  4019.29
   15035.6  4164.77
   15244.8  4314.66
   15456.9  4468.12
   15671.9  4625.08
   15889.9  4785.44
   16111.0  4949.11
   16335.1  5115.99
   16562.3  5286.02
   16792.7  5459.02
   17026.3  5634.84
   17263.2  5813.35
   17503.4  5994.31
   17746.9  6177.57
   17993.7  6363.00
   18244.1  6550.27
   18497.9  6739.21
   18755.2  6929.61
   19016.1  7121.18
   19280.6  7313.69
   19548.9  7506.85
   19820.8  7695.62
   20096.5  7867.58
   20376.1  8073.10
   20659.6  8278.96
   20947.0  8484.82
   21238.4  8690.48
   21533.8  8895.66
   21833.4  9100.11
   22137.1  9303.62
   22445.1  9505.89
   22757.3  9706.67
   23073.9  9905.76
   23394.9  10102.9
   23720.4  10297.9
   24050.3  10490.6
   24384.9  10680.6
   24724.1  10867.9
   25068.1  11052.2
   25416.8  11233.5
   25770.4  11411.5
   26128.9  11586.0
   26492.4  11757.0
   26860.9  11924.4
   27234.6  12087.9
   27613.5  12247.6
   27997.6  12403.3
   28387.1  12555.1
   28782.0  12702.7
   29182.4  12846.2
   29588.4  12985.6
   30000.0  13120.8