# CdTe Density=5.85, Angle=90.deg
# Photon Energy (eV), Atten Length (microns)
   100.000  2.211835E-02
   101.147  2.279751E-02
   102.308  2.370446E-02
   103.482  2.464375E-02
   104.669  2.576058E-02
   105.870  2.712298E-02
   107.084  2.901715E-02
   108.313  3.104296E-02
   109.555  3.320921E-02
   110.812  3.552552E-02
   112.084  3.800162E-02
   113.370  4.073958E-02
   114.670  4.384683E-02
   115.986  4.824280E-02
   117.317  5.342907E-02
   118.663  5.937223E-02
   120.024  6.596135E-02
   121.401  7.326638E-02
   122.794  8.133661E-02
   124.203  9.021961E-02
   125.628  9.923301E-02
   127.069  0.108633
   128.527  0.118527
   130.001  0.129228
   131.493  0.140796
   133.001  0.153295
   134.527  0.166788
   136.071  0.181335
   137.632  0.198793
   139.211  0.219330
   140.808  0.242254
   142.423  0.264813
   144.057  0.286288
   145.710  0.305235
   147.382  0.325030
   149.073  0.341473
   150.783  0.353832
   152.513  0.360391
   154.263  0.366460
   156.033  0.371782
   157.823  0.375913
   159.633  0.379455
   161.465  0.380945
   163.317  0.380062
   165.191  0.375239
   167.086  0.370268
   169.003  0.365117
   170.942  0.359679
   172.903  0.352888
   174.887  0.345710
   176.894  0.338476
   178.923  0.333086
   180.976  0.327693
   183.052  0.322304
   185.152  0.316899
   187.277  0.311579
   189.425  0.306341
   191.598  0.301180
   193.797  0.296104
   196.020  0.291105
   198.269  0.286369
   200.544  0.282295
   202.844  0.278313
   205.172  0.274693
   207.526  0.271518
   209.906  0.268395
   212.315  0.265303
   214.751  0.262241
   217.214  0.259205
   219.706  0.256665
   222.227  0.254475
   224.777  0.252628
   227.355  0.250793
   229.964  0.248971
   232.602  0.247294
   235.271  0.246254
   237.970  0.245359
   240.700  0.244504
   243.462  0.243645
   246.255  0.243167
   249.080  0.242912
   251.938  0.242830
   254.828  0.242746
   257.752  0.242660
   260.709  0.242573
   263.700  0.242483
   266.726  0.242604
   269.786  0.243082
   272.881  0.243975
   276.012  0.245691
   279.178  0.247415
   282.381  0.249149
   285.621  0.250892
   288.898  0.252645
   292.213  0.254407
   295.565  0.256178
   298.956  0.257958
   302.386  0.259748
   305.855  0.261548
   309.364  0.263361
   312.913  0.265355
   316.504  0.267389
   320.135  0.269433
   323.808  0.271488
   327.523  0.274187
   331.280  0.277307
   335.081  0.280553
   338.925  0.283837
   342.814  0.287128
   346.747  0.290415
   350.725  0.293690
   354.749  0.297003
   358.819  0.300352
   362.935  0.303739
   367.099  0.307164
   371.311  0.310562
   375.571  0.313890
   379.880  0.315970
   384.238  0.319190
   388.647  0.323303
   393.105  0.327427
   397.616  0.331564
   402.177  0.335710
   406.792  0.349106
   411.459  0.338297
   416.179  0.326489
   420.954  0.313790
   425.783  0.300308
   430.668  0.285756
   435.609  0.270702
   440.607  0.255485
   445.662  0.240249
   450.775  0.225181
   455.947  0.210409
   461.178  0.196056
   466.469  0.182130
   471.821  0.168987
   477.234  0.157044
   482.709  0.150161
   488.247  0.146408
   493.849  0.145469
   499.515  0.146802
   505.245  0.148147
   511.042  0.149505
   516.905  0.150875
   522.836  0.153448
   528.834  0.156189
   534.901  0.158840
   541.038  0.161270
   547.245  0.163710
   553.524  0.165810
   559.875  0.166627
   566.298  0.165900
   572.795  0.164715
   579.366  8.652088E-02
   586.013  8.848274E-02
   592.737  9.047807E-02
   599.537  9.250716E-02
   606.416  9.457027E-02
   613.373  9.669805E-02
   620.410  9.888458E-02
   627.528  0.101132
   634.727  0.103189
   642.010  0.105062
   649.375  0.106799
   656.826  0.108562
   664.361  0.110351
   671.983  0.112167
   679.693  0.114009
   687.491  0.115945
   695.378  0.118076
   703.357  0.120393
   711.426  0.122773
   719.588  0.125195
   727.844  0.127661
   736.194  0.130171
   744.641  0.132725
   753.184  0.135334
   761.825  0.137981
   770.565  0.140470
   779.406  0.143004
   788.348  0.145581
   797.393  0.148197
   806.541  0.149328
   815.794  0.150369
   825.154  0.151576
   834.621  0.152977
   844.196  0.154628
   853.882  0.156790
   863.678  0.160143
   873.587  0.163548
   883.609  0.167022
   893.747  0.170571
   904.001  0.174276
   914.372  0.178093
   924.863  0.182025
   935.474  0.186087
   946.206  0.190250
   957.062  0.194313
   968.042  0.198157
   979.148  0.201961
   990.382  0.205902
   1001.74  0.210003
   1013.24  0.214351
   1024.86  0.219677
   1036.62  0.225421
   1048.51  0.231345
   1060.54  0.237466
   1072.71  0.243753
   1085.02  0.250206
   1097.47  0.256828
   1110.06  0.263627
   1122.79  0.270605
   1135.67  0.277768
   1148.70  0.285120
   1161.88  0.292666
   1175.21  0.300415
   1188.70  0.308366
   1202.33  0.316528
   1216.13  0.324906
   1230.08  0.333508
   1244.19  0.342329
   1258.47  0.351377
   1272.91  0.360658
   1287.51  0.370176
   1302.28  0.379948
   1317.22  0.389979
   1332.33  0.400274
   1347.62  0.410840
   1363.08  0.421684
   1378.72  0.432814
   1394.54  0.444236
   1410.54  0.455961
   1426.72  0.467995
   1443.09  0.480348
   1459.64  0.493028
   1476.39  0.506047
   1493.33  0.519416
   1510.46  0.533153
   1527.79  0.547254
   1545.32  0.561728
   1563.05  0.576582
   1580.98  0.591829
   1599.12  0.607480
   1617.47  0.623546
   1636.02  0.640043
   1654.79  0.656972
   1673.78  0.674346
   1692.98  0.692180
   1712.40  0.710484
   1732.05  0.729471
   1751.92  0.749330
   1772.02  0.769923
   1792.35  0.791183
   1812.92  0.813107
   1833.72  0.835649
   1854.75  0.858813
   1876.03  0.882616
   1897.56  0.907077
   1919.33  0.932210
   1941.35  0.958038
   1963.62  0.984580
   1986.15  1.01186
   2008.93  1.03956
   2031.98  1.06820
   2055.30  1.09846
   2078.88  1.12970
   2102.73  1.16190
   2126.85  1.19511
   2151.25  1.22940
   2175.93  1.26477
   2200.90  1.30127
   2226.15  1.33897
   2251.69  1.37788
   2277.52  1.41803
   2303.65  1.45950
   2330.08  1.50231
   2356.81  1.54652
   2383.85  1.59218
   2411.20  1.63938
   2438.87  1.68811
   2466.85  1.73844
   2495.15  1.79046
   2523.78  1.84425
   2552.73  1.89985
   2582.02  1.95730
   2611.64  2.01671
   2641.60  2.07816
   2671.91  2.14169
   2702.56  2.20739
   2733.57  2.27545
   2764.93  2.34583
   2796.66  2.41861
   2828.74  2.49400
   2861.19  2.57209
   2894.02  2.65291
   2927.22  2.73660
   2960.81  2.82339
   2994.78  2.91324
   3029.13  3.00628
   3063.89  3.10282
   3099.04  3.20298
   3134.59  3.30678
   3170.56  3.41438
   3206.93  3.52616
   3243.72  3.64209
   3280.94  3.76234
   3318.58  3.88745
   3356.66  4.01735
   3395.17  4.15214
   3434.12  4.29221
   3473.52  4.43801
   3513.37  4.58883
   3553.68  2.23528
   3594.45  2.30022
   3635.69  2.36704
   3677.40  2.43578
   3719.59  2.50652
   3762.26  2.04262
   3805.43  2.10400
   3849.09  2.16724
   3893.25  2.23243
   3937.91  2.29958
   3983.09  2.36874
   4028.79  2.16613
   4075.01  2.22859
   4121.76  2.29292
   4169.05  2.35921
   4216.88  2.42763
   4265.26  2.49809
   4314.20  2.57068
   4363.69  1.76812
   4413.76  1.82021
   4464.40  1.87388
   4515.62  1.92916
   4567.42  1.98620
   4619.83  1.74223
   4672.83  1.79402
   4726.44  1.84741
   4780.66  1.90245
   4835.51  1.95918
   4890.99  2.01766
   4947.10  1.93241
   5003.86  1.98793
   5061.27  2.04510
   5119.34  2.10412
   5178.07  2.16504
   5237.48  2.22785
   5297.57  2.29265
   5358.35  2.35957
   5419.82  2.42859
   5482.00  2.49976
   5544.90  2.57326
   5608.51  2.64908
   5672.86  2.72729
   5737.94  2.80799
   5803.77  2.89132
   5870.36  2.97726
   5937.71  3.06591
   6005.83  3.15744
   6074.73  3.25190
   6144.43  3.34934
   6214.92  3.44990
   6286.23  3.55370
   6358.35  3.66077
   6431.30  3.77121
   6505.08  3.88532
   6579.71  4.00299
   6655.20  4.12438
   6731.56  4.24970
   6808.79  4.37902
   6886.90  4.51247
   6965.92  4.65019
   7045.84  4.79242
   7126.67  4.93913
   7208.43  5.09050
   7291.14  5.24672
   7374.79  5.40800
   7459.40  5.57444
   7544.98  5.74617
   7631.54  5.92353
   7719.10  6.10650
   7807.66  6.29526
   7897.23  6.49014
   7987.84  6.69136
   8079.48  6.89900
   8172.18  7.11324
   8265.93  7.33447
   8360.77  7.56273
   8456.69  7.79829
   8553.71  8.04152
   8651.85  8.29249
   8751.11  8.55149
   8851.51  8.81896
   8953.06  9.09490
   9055.78  9.37970
   9159.68  9.67367
   9264.76  9.97735
   9371.06  10.2907
   9478.57  10.6140
   9587.31  10.9475
   9697.31  11.2921
   9808.57  11.6479
   9921.10  12.0153
   10034.9  12.3943
   10150.1  12.7854
   10266.5  13.1890
   10384.3  13.6057
   10503.4  14.0358
   10623.9  14.4798
   10745.8  14.9380
   10869.1  15.4111
   10993.8  15.8993
   11119.9  16.4033
   11247.5  16.9236
   11376.6  17.4607
   11507.1  18.0151
   11639.1  18.5872
   11772.6  19.1778
   11907.7  19.7875
   12044.3  20.4167
   12182.5  21.0662
   12322.3  21.7368
   12463.6  22.4290
   12606.6  23.1432
   12751.3  23.8807
   12897.6  24.6417
   13045.5  25.4272
   13195.2  26.2383
   13346.6  27.0754
   13499.7  27.9393
   13654.6  28.8312
   13811.2  29.7517
   13969.7  30.7018
   14130.0  31.6824
   14292.1  32.6947
   14456.1  33.7397
   14621.9  34.8182
   14789.7  35.9309
   14959.3  37.0799
   15131.0  38.2658
   15304.6  39.4899
   15480.2  40.7536
   15657.8  42.0577
   15837.4  43.4036
   16019.1  44.7927
   16202.9  46.2265
   16388.8  47.7062
   16576.8  49.2335
   16767.0  50.8099
   16959.3  52.4368
   17153.9  54.1161
   17350.7  55.8492
   17549.8  57.6374
   17751.1  59.4831
   17954.8  61.3882
   18160.8  63.3543
   18369.1  65.3831
   18579.9  67.4770
   18793.1  69.6381
   19008.7  71.8681
   19226.8  74.1696
   19447.3  76.5444
   19670.4  78.9949
   19896.1  81.5239
   20124.4  84.1340
   20355.3  86.8277
   20588.8  89.6074
   20825.0  92.4760
   21064.0  95.4357
   21305.6  98.4896
   21550.1  101.641
   21797.3  104.892
   22047.4  108.248
   22300.3  111.710
   22556.2  115.282
   22815.0  118.968
   23076.7  122.771
   23341.5  126.694
   23609.3  130.742
   23880.1  134.918
   24154.1  139.227
   24431.2  143.673
   24711.5  148.258
   24995.0  152.989
   25281.8  157.870
   25571.8  162.905
   25865.2  168.098
   26162.0  173.457
   26462.1  178.984
   26765.7  58.2187
   27072.8  59.9712
   27383.4  61.7779
   27697.6  63.6415
   28015.3  65.5658
   28336.8  67.5506
   28661.9  69.5980
   28990.7  71.7109
   29323.3  73.8915
   29659.7  76.1408
   30000.0  78.4609